     #Energy           s          py          pz          px         dxy         dyz         dz2         dxz         dx2       tot  
   -29.30203     0.00000     0.00000     0.00000     0.00000     0.00000     0.00000     0.00000     0.00000     0.00000     0.00000
   -29.18703     0.00000     0.00000     0.00000     0.00000     0.00000     0.00000     0.00000     0.00000     0.00000     0.00000
   -29.07203     0.00000     0.00000     0.00000     0.00000     0.00000     0.00000     0.00000     0.00000     0.00000     0.00000
   -28.95703     0.00000     0.00000     0.00000     0.00000     0.00000     0.00000     0.00000     0.00000     0.00000     0.00000
   -28.84203     0.00000     0.00000     0.00000     0.00000     0.00000     0.00000     0.00000     0.00000     0.00000     0.00000
   -28.72703     0.00000     0.00000     0.00000     0.00000     0.00000     0.00000     0.00000     0.00000     0.00000     0.00000
   -28.61203     0.00000     0.00000     0.00000     0.00000     0.00000     0.00000     0.00000     0.00000     0.00000     0.00000
   -28.49703     0.00000     0.00000     0.00000     0.00000     0.00000     0.00000     0.00000     0.00000     0.00000     0.00000
   -28.38203     0.00000     0.00000     0.00000     0.00000     0.00000     0.00000     0.00000     0.00000     0.00000     0.00000
   -28.26703    -0.00000    -0.00000    -0.00000    -0.00000     0.00000     0.00000     0.00000     0.00000     0.00000    -0.00000
   -28.15203    -0.00000    -0.00000    -0.00000    -0.00000     0.00000     0.00000     0.00000     0.00000     0.00000    -0.00000
   -28.03703    -0.00000    -0.00000    -0.00000    -0.00000     0.00000     0.00000     0.00000     0.00000     0.00000    -0.00000
   -27.92203    -0.00000    -0.00000    -0.00000    -0.00000     0.00000     0.00000     0.00000     0.00000     0.00000    -0.00000
   -27.80703    -0.00000    -0.00000    -0.00000    -0.00000     0.00000     0.00000     0.00000     0.00000     0.00000    -0.00000
   -27.69203    -0.00003    -0.00000    -0.00000    -0.00000     0.00000     0.00000     0.00000     0.00000     0.00000    -0.00003
   -27.57703    -0.00053    -0.00000    -0.00000    -0.00000     0.00000     0.00000     0.00000     0.00000     0.00000    -0.00053
   -27.46203    -0.00581    -0.00000    -0.00000    -0.00005     0.00000     0.00000     0.00000     0.00000     0.00000    -0.00586
   -27.34703    -0.03649    -0.00001    -0.00000    -0.00030     0.00000     0.00000     0.00000     0.00000     0.00000    -0.03680
   -27.23203    -0.13646    -0.00002    -0.00000    -0.00113     0.00000     0.00000     0.00000     0.00000     0.00000    -0.13761
   -27.11703    -0.32409    -0.00004    -0.00000    -0.00269     0.00000     0.00000     0.00000     0.00000     0.00000    -0.32683
   -27.00203    -0.53070    -0.00007    -0.00000    -0.00441     0.00000     0.00000     0.00000     0.00000     0.00000    -0.53519
   -26.88703    -0.66456    -0.00009    -0.00000    -0.00553     0.00000     0.00000     0.00000     0.00000     0.00000    -0.67018
   -26.77203    -0.71488    -0.00010    -0.00000    -0.00594     0.00000     0.00000     0.00000     0.00000     0.00000    -0.72093
   -26.65703    -0.72561    -0.00010    -0.00000    -0.00603     0.00000     0.00000     0.00000     0.00000     0.00000    -0.73175
   -26.54203    -0.72688    -0.00010    -0.00000    -0.00604     0.00000     0.00000     0.00000     0.00000     0.00000    -0.73302
   -26.42703    -0.72696    -0.00010    -0.00000    -0.00604     0.00000     0.00000     0.00000     0.00000     0.00000    -0.73311
   -26.31203    -0.72696    -0.00010    -0.00000    -0.00604     0.00000     0.00000     0.00000     0.00000     0.00000    -0.73311
   -26.19703    -0.72696    -0.00010    -0.00000    -0.00604     0.00000     0.00000     0.00000     0.00000     0.00000    -0.73311
   -26.08203    -0.72696    -0.00010    -0.00000    -0.00604     0.00000     0.00000     0.00000     0.00000     0.00000    -0.73311
   -25.96703    -0.72696    -0.00010    -0.00000    -0.00604     0.00000     0.00000     0.00000     0.00000     0.00000    -0.73311
   -25.85203    -0.72696    -0.00010    -0.00000    -0.00604     0.00000     0.00000     0.00000     0.00000     0.00000    -0.73311
   -25.73703    -0.72696    -0.00010    -0.00000    -0.00604     0.00000     0.00000     0.00000     0.00000     0.00000    -0.73311
   -25.62203    -0.72696    -0.00010    -0.00000    -0.00604     0.00000     0.00000     0.00000     0.00000     0.00000    -0.73311
   -25.50803    -0.72696    -0.00010    -0.00000    -0.00604     0.00000     0.00000     0.00000     0.00000     0.00000    -0.73311
   -25.39303    -0.72696    -0.00010    -0.00000    -0.00604     0.00000     0.00000     0.00000     0.00000     0.00000    -0.73311
   -25.27803    -0.72696    -0.00010    -0.00000    -0.00604     0.00000     0.00000     0.00000     0.00000     0.00000    -0.73311
   -25.16303    -0.72696    -0.00010    -0.00000    -0.00604     0.00000     0.00000     0.00000     0.00000     0.00000    -0.73311
   -25.04803    -0.72696    -0.00010    -0.00000    -0.00604     0.00000     0.00000     0.00000     0.00000     0.00000    -0.73311
   -24.93303    -0.72696    -0.00010    -0.00000    -0.00604     0.00000     0.00000     0.00000     0.00000     0.00000    -0.73311
   -24.81803    -0.72696    -0.00010    -0.00000    -0.00604     0.00000     0.00000     0.00000     0.00000     0.00000    -0.73311
   -24.70303    -0.72696    -0.00010    -0.00000    -0.00604     0.00000     0.00000     0.00000     0.00000     0.00000    -0.73311
   -24.58803    -0.72696    -0.00010    -0.00000    -0.00604     0.00000     0.00000     0.00000     0.00000     0.00000    -0.73311
   -24.47303    -0.72696    -0.00010    -0.00000    -0.00604     0.00000     0.00000     0.00000     0.00000     0.00000    -0.73311
   -24.35803    -0.72696    -0.00010    -0.00000    -0.00604     0.00000     0.00000     0.00000     0.00000     0.00000    -0.73311
   -24.24303    -0.72696    -0.00010    -0.00000    -0.00604     0.00000     0.00000     0.00000     0.00000     0.00000    -0.73311
   -24.12803    -0.72696    -0.00010    -0.00000    -0.00604     0.00000     0.00000     0.00000     0.00000     0.00000    -0.73311
   -24.01303    -0.72696    -0.00010    -0.00000    -0.00604     0.00000     0.00000     0.00000     0.00000     0.00000    -0.73311
   -23.89803    -0.72696    -0.00010    -0.00000    -0.00604     0.00000     0.00000     0.00000     0.00000     0.00000    -0.73311
   -23.78303    -0.72696    -0.00010    -0.00000    -0.00604     0.00000     0.00000     0.00000     0.00000     0.00000    -0.73311
   -23.66803    -0.72696    -0.00010    -0.00000    -0.00604     0.00000     0.00000     0.00000     0.00000     0.00000    -0.73311
   -23.55303    -0.72696    -0.00010    -0.00000    -0.00604     0.00000     0.00000     0.00000     0.00000     0.00000    -0.73311
   -23.43803    -0.72696    -0.00010    -0.00000    -0.00604     0.00000     0.00000     0.00000     0.00000     0.00000    -0.73311
   -23.32303    -0.72696    -0.00010    -0.00000    -0.00604     0.00000     0.00000     0.00000     0.00000     0.00000    -0.73311
   -23.20803    -0.72696    -0.00010    -0.00000    -0.00604     0.00000     0.00000     0.00000     0.00000     0.00000    -0.73311
   -23.09303    -0.72696    -0.00010    -0.00000    -0.00604     0.00000     0.00000     0.00000     0.00000     0.00000    -0.73311
   -22.97803    -0.72696    -0.00010    -0.00000    -0.00604     0.00000     0.00000     0.00000     0.00000     0.00000    -0.73311
   -22.86303    -0.72696    -0.00010    -0.00000    -0.00604     0.00000     0.00000     0.00000     0.00000     0.00000    -0.73311
   -22.74803    -0.72696    -0.00010    -0.00000    -0.00604     0.00000     0.00000     0.00000     0.00000     0.00000    -0.73311
   -22.63303    -0.72696    -0.00010    -0.00000    -0.00604     0.00000     0.00000     0.00000     0.00000     0.00000    -0.73311
   -22.51803    -0.72696    -0.00010    -0.00000    -0.00604     0.00000     0.00000     0.00000     0.00000     0.00000    -0.73311
   -22.40303    -0.72696    -0.00010    -0.00000    -0.00604     0.00000     0.00000     0.00000     0.00000     0.00000    -0.73311
   -22.28803    -0.72696    -0.00010    -0.00000    -0.00604     0.00000     0.00000     0.00000     0.00000     0.00000    -0.73311
   -22.17303    -0.72696    -0.00010    -0.00000    -0.00604     0.00000     0.00000     0.00000     0.00000     0.00000    -0.73311
   -22.05803    -0.72696    -0.00010    -0.00000    -0.00604     0.00000     0.00000     0.00000     0.00000     0.00000    -0.73311
   -21.94303    -0.72696    -0.00010    -0.00000    -0.00604     0.00000     0.00000     0.00000     0.00000     0.00000    -0.73311
   -21.82803    -0.72696    -0.00010    -0.00000    -0.00604     0.00000     0.00000     0.00000     0.00000     0.00000    -0.73311
   -21.71303    -0.72696    -0.00010    -0.00000    -0.00604     0.00000     0.00000     0.00000     0.00000     0.00000    -0.73311
   -21.59803    -0.72696    -0.00010    -0.00000    -0.00604     0.00000     0.00000     0.00000     0.00000     0.00000    -0.73311
   -21.48303    -0.72696    -0.00010    -0.00000    -0.00604     0.00000     0.00000     0.00000     0.00000     0.00000    -0.73311
   -21.36803    -0.72696    -0.00010    -0.00000    -0.00604     0.00000     0.00000     0.00000     0.00000     0.00000    -0.73311
   -21.25303    -0.72696    -0.00010    -0.00000    -0.00604     0.00000     0.00000     0.00000     0.00000     0.00000    -0.73311
   -21.13803    -0.72696    -0.00010    -0.00000    -0.00604     0.00000     0.00000     0.00000     0.00000     0.00000    -0.73311
   -21.02303    -0.72696    -0.00010    -0.00000    -0.00604     0.00000     0.00000     0.00000     0.00000     0.00000    -0.73311
   -20.90903    -0.72696    -0.00010    -0.00000    -0.00604     0.00000     0.00000     0.00000     0.00000     0.00000    -0.73311
   -20.79403    -0.72696    -0.00010    -0.00000    -0.00604     0.00000     0.00000     0.00000     0.00000     0.00000    -0.73311
   -20.67903    -0.72696    -0.00010    -0.00000    -0.00604     0.00000     0.00000     0.00000     0.00000     0.00000    -0.73311
   -20.56403    -0.72696    -0.00010    -0.00000    -0.00604     0.00000     0.00000     0.00000     0.00000     0.00000    -0.73311
   -20.44903    -0.72696    -0.00010    -0.00000    -0.00604     0.00000     0.00000     0.00000     0.00000     0.00000    -0.73311
   -20.33403    -0.72696    -0.00010    -0.00000    -0.00604     0.00000     0.00000     0.00000     0.00000     0.00000    -0.73311
   -20.21903    -0.72696    -0.00010    -0.00000    -0.00604     0.00000     0.00000     0.00000     0.00000     0.00000    -0.73311
   -20.10403    -0.72696    -0.00010    -0.00000    -0.00605     0.00000     0.00000     0.00000     0.00000     0.00000    -0.73311
   -19.98903    -0.72700    -0.00010    -0.00000    -0.00607     0.00000     0.00000     0.00000     0.00000     0.00000    -0.73317
   -19.87403    -0.72725    -0.00010    -0.00000    -0.00625     0.00000     0.00000     0.00000     0.00000     0.00000    -0.73360
   -19.75903    -0.72835    -0.00010    -0.00000    -0.00704     0.00000     0.00000     0.00000     0.00000     0.00000    -0.73549
   -19.64403    -0.73106    -0.00010    -0.00000    -0.00900     0.00000     0.00000     0.00000     0.00000     0.00000    -0.74016
   -19.52903    -0.73497    -0.00011    -0.00000    -0.01181     0.00000     0.00000     0.00000     0.00000     0.00000    -0.74689
   -19.41403    -0.73828    -0.00011    -0.00001    -0.01420     0.00000     0.00000     0.00000     0.00000     0.00000    -0.75259
   -19.29903    -0.73992    -0.00011    -0.00001    -0.01538     0.00000     0.00000     0.00000     0.00000     0.00000    -0.75542
   -19.18403    -0.74039    -0.00011    -0.00001    -0.01572     0.00000     0.00000     0.00000     0.00000     0.00000    -0.75622
   -19.06903    -0.74046    -0.00011    -0.00001    -0.01577     0.00000     0.00000     0.00000     0.00000     0.00000    -0.75635
   -18.95403    -0.74047    -0.00011    -0.00001    -0.01578     0.00000     0.00000     0.00000     0.00000     0.00000    -0.75636
   -18.83903    -0.74047    -0.00011    -0.00001    -0.01578     0.00000     0.00000     0.00000     0.00000     0.00000    -0.75636
   -18.72403    -0.74047    -0.00011    -0.00001    -0.01578     0.00000     0.00000     0.00000     0.00000     0.00000    -0.75636
   -18.60903    -0.74047    -0.00011    -0.00001    -0.01578     0.00000     0.00000     0.00000     0.00000     0.00000    -0.75636
   -18.49403    -0.74047    -0.00011    -0.00001    -0.01578     0.00000     0.00000     0.00000     0.00000     0.00000    -0.75636
   -18.37903    -0.74047    -0.00011    -0.00001    -0.01578     0.00000     0.00000     0.00000     0.00000     0.00000    -0.75636
   -18.26403    -0.74047    -0.00011    -0.00001    -0.01578     0.00000     0.00000     0.00000     0.00000     0.00000    -0.75636
   -18.14903    -0.74047    -0.00011    -0.00001    -0.01578     0.00000     0.00000     0.00000     0.00000     0.00000    -0.75636
   -18.03403    -0.74047    -0.00011    -0.00001    -0.01578     0.00000     0.00000     0.00000     0.00000     0.00000    -0.75636
   -17.91903    -0.74047    -0.00011    -0.00001    -0.01578     0.00000     0.00000     0.00000     0.00000     0.00000    -0.75636
   -17.80403    -0.74047    -0.00011    -0.00001    -0.01578     0.00000     0.00000     0.00000     0.00000     0.00000    -0.75636
   -17.68903    -0.74047    -0.00011    -0.00001    -0.01578     0.00000     0.00000     0.00000     0.00000     0.00000    -0.75636
   -17.57403    -0.74047    -0.00011    -0.00001    -0.01578     0.00000     0.00000     0.00000     0.00000     0.00000    -0.75636
   -17.45903    -0.74047    -0.00011    -0.00001    -0.01578     0.00000     0.00000     0.00000     0.00000     0.00000    -0.75637
   -17.34403    -0.74048    -0.00011    -0.00001    -0.01583     0.00000     0.00000     0.00000     0.00000     0.00000    -0.75643
   -17.22903    -0.74062    -0.00012    -0.00001    -0.01631     0.00000     0.00000     0.00000     0.00000     0.00000    -0.75706
   -17.11403    -0.74145    -0.00021    -0.00001    -0.01922     0.00000     0.00000     0.00000     0.00000     0.00000    -0.76088
   -16.99903    -0.74426    -0.00050    -0.00001    -0.02898     0.00000     0.00000     0.00000     0.00000     0.00000    -0.77375
   -16.88403    -0.74968    -0.00114    -0.00001    -0.04786     0.00000     0.00000     0.00000     0.00000     0.00000    -0.79869
   -16.76903    -0.75583    -0.00191    -0.00002    -0.06926     0.00000     0.00000     0.00000     0.00000     0.00000    -0.82702
   -16.65403    -0.75993    -0.00248    -0.00002    -0.08355     0.00000     0.00000     0.00000     0.00000     0.00000    -0.84598
   -16.53903    -0.76153    -0.00272    -0.00002    -0.08909     0.00000     0.00000     0.00000     0.00000     0.00000    -0.85336
   -16.42503    -0.76188    -0.00277    -0.00002    -0.09031     0.00000     0.00000     0.00000     0.00000     0.00000    -0.85499
   -16.31003    -0.76192    -0.00278    -0.00002    -0.09046     0.00000     0.00000     0.00000     0.00000     0.00000    -0.85519
   -16.19503    -0.76193    -0.00278    -0.00002    -0.09047     0.00000     0.00000     0.00000     0.00000     0.00000    -0.85520
   -16.08003    -0.76193    -0.00278    -0.00002    -0.09047     0.00000     0.00000     0.00000     0.00000     0.00000    -0.85520
   -15.96503    -0.76193    -0.00278    -0.00002    -0.09047     0.00000     0.00000     0.00000     0.00000     0.00000    -0.85520
   -15.85003    -0.76193    -0.00278    -0.00002    -0.09047     0.00000     0.00000     0.00000     0.00000     0.00000    -0.85520
   -15.73503    -0.76193    -0.00278    -0.00002    -0.09047     0.00000     0.00000     0.00000     0.00000     0.00000    -0.85520
   -15.62003    -0.76193    -0.00278    -0.00005    -0.09047     0.00000     0.00000     0.00000     0.00000     0.00000    -0.85523
   -15.50503    -0.76193    -0.00278    -0.00058    -0.09047     0.00000     0.00000     0.00000     0.00000     0.00000    -0.85576
   -15.39003    -0.76193    -0.00278    -0.00579    -0.09050     0.00000     0.00000     0.00000     0.00000     0.00000    -0.86100
   -15.27503    -0.76193    -0.00280    -0.03423    -0.09064     0.00000     0.00000     0.00000     0.00000     0.00000    -0.88960
   -15.16003    -0.76193    -0.00285    -0.12165    -0.09108     0.00000     0.00000     0.00000     0.00000     0.00000    -0.97751
   -15.04503    -0.76193    -0.00294    -0.27675    -0.09186     0.00000     0.00000     0.00000     0.00000     0.00000    -1.13349
   -14.93003    -0.76193    -0.00304    -0.43835    -0.09267     0.00000     0.00000     0.00000     0.00000     0.00000    -1.29599
   -14.81503    -0.76193    -0.00310    -0.53734    -0.09317     0.00000     0.00000     0.00000     0.00000     0.00000    -1.39554
   -14.70003    -0.76193    -0.00312    -0.57246    -0.09335     0.00000     0.00000     0.00000     0.00000     0.00000    -1.43085
   -14.58503    -0.76193    -0.00312    -0.57950    -0.09338     0.00000     0.00000     0.00000     0.00000     0.00000    -1.43794
   -14.47003    -0.76193    -0.00312    -0.58028    -0.09340     0.00000     0.00000     0.00000     0.00000     0.00000    -1.43874
   -14.35503    -0.76193    -0.00312    -0.58033    -0.09363     0.00000     0.00000     0.00000     0.00000     0.00000    -1.43902
   -14.24003    -0.76199    -0.00313    -0.58036    -0.09592     0.00000     0.00000     0.00000     0.00000     0.00000    -1.44139
   -14.12503    -0.76229    -0.00315    -0.58048    -0.10844     0.00000     0.00000     0.00000     0.00000     0.00000    -1.45436
   -14.01003    -0.76323    -0.00320    -0.58084    -0.14707     0.00000     0.00000     0.00000     0.00000     0.00000    -1.49435
   -13.89503    -0.76490    -0.00334    -0.58149    -0.21581     0.00000     0.00000     0.00000     0.00000     0.00000    -1.56554
   -13.78003    -0.76665    -0.00373    -0.58217    -0.28766     0.00000     0.00000     0.00000     0.00000     0.00000    -1.64020
   -13.66503    -0.76772    -0.00526    -0.58260    -0.33182     0.00000     0.00000     0.00000     0.00000     0.00000    -1.68740
   -13.55003    -0.76811    -0.00952    -0.58278    -0.34757     0.00000     0.00000     0.00000     0.00000     0.00000    -1.70798
   -13.43503    -0.76820    -0.01659    -0.58287    -0.35081     0.00000     0.00000     0.00000     0.00000     0.00000    -1.71846
   -13.32003    -0.76822    -0.02352    -0.58293    -0.35123     0.00000     0.00000     0.00000     0.00000     0.00000    -1.72590
   -13.20503    -0.76823    -0.02752    -0.58297    -0.35129     0.00000     0.00000     0.00000     0.00000     0.00000    -1.73000
   -13.09003    -0.76823    -0.02885    -0.58298    -0.35130     0.00000     0.00000     0.00000     0.00000     0.00000    -1.73136
   -12.97503    -0.76823    -0.02910    -0.58298    -0.35130     0.00000     0.00000     0.00000     0.00000     0.00000    -1.73162
   -12.86003    -0.76823    -0.02913    -0.58298    -0.35130     0.00000     0.00000     0.00000     0.00000     0.00000    -1.73164
   -12.74503    -0.76823    -0.02913    -0.58298    -0.35130     0.00000     0.00000     0.00000     0.00000     0.00000    -1.73165
   -12.63003    -0.76823    -0.02913    -0.58298    -0.35130     0.00000     0.00000     0.00000     0.00000     0.00000    -1.73165
   -12.51503    -0.76823    -0.02913    -0.58298    -0.35131     0.00000     0.00000     0.00000     0.00000     0.00000    -1.73165
   -12.40003    -0.76823    -0.02913    -0.58298    -0.35139     0.00000     0.00000     0.00000     0.00000     0.00000    -1.73173
   -12.28503    -0.76823    -0.02913    -0.58298    -0.35226     0.00000     0.00000     0.00000     0.00000     0.00000    -1.73261
