     #Energy           s          py          pz          px         dxy         dyz         dz2         dxz         dx2       tot  
   -29.30203     0.00000     0.00000     0.00000     0.00000     0.00000     0.00000     0.00000     0.00000     0.00000     0.00000
   -29.18703     0.00000     0.00000     0.00000     0.00000     0.00000     0.00000     0.00000     0.00000     0.00000     0.00000
   -29.07203     0.00000     0.00000     0.00000     0.00000     0.00000     0.00000     0.00000     0.00000     0.00000     0.00000
   -28.95703     0.00000     0.00000     0.00000     0.00000     0.00000     0.00000     0.00000     0.00000     0.00000     0.00000
   -28.84203     0.00000     0.00000     0.00000     0.00000     0.00000     0.00000     0.00000     0.00000     0.00000     0.00000
   -28.72703     0.00000     0.00000     0.00000     0.00000     0.00000     0.00000     0.00000     0.00000     0.00000     0.00000
   -28.61203     0.00000     0.00000     0.00000     0.00000     0.00000     0.00000     0.00000     0.00000     0.00000     0.00000
   -28.49703     0.00000     0.00000     0.00000     0.00000     0.00000     0.00000     0.00000     0.00000     0.00000     0.00000
   -28.38203     0.00000     0.00000     0.00000     0.00000     0.00000     0.00000     0.00000     0.00000     0.00000     0.00000
   -28.26703    -0.00000    -0.00000    -0.00000    -0.00000     0.00000     0.00000     0.00000     0.00000     0.00000    -0.00000
   -28.15203    -0.00000    -0.00000    -0.00000    -0.00000     0.00000     0.00000     0.00000     0.00000     0.00000    -0.00000
   -28.03703    -0.00000    -0.00000    -0.00000    -0.00000     0.00000     0.00000     0.00000     0.00000     0.00000    -0.00000
   -27.92203    -0.00000    -0.00000    -0.00000    -0.00000     0.00000     0.00000     0.00000     0.00000     0.00000    -0.00000
   -27.80703    -0.00000    -0.00000    -0.00000    -0.00000     0.00000     0.00000     0.00000     0.00000     0.00000    -0.00000
   -27.69203    -0.00000    -0.00000    -0.00000    -0.00000     0.00000     0.00000     0.00000     0.00000     0.00000    -0.00001
   -27.57703    -0.00008    -0.00000    -0.00002    -0.00000     0.00000     0.00000     0.00000     0.00000     0.00000    -0.00010
   -27.46203    -0.00090    -0.00000    -0.00018    -0.00003     0.00000     0.00000     0.00000     0.00000     0.00000    -0.00111
   -27.34703    -0.00565    -0.00000    -0.00111    -0.00019     0.00000     0.00000     0.00000     0.00000     0.00000    -0.00695
   -27.23203    -0.02113    -0.00001    -0.00417    -0.00070     0.00000     0.00000     0.00000     0.00000     0.00000    -0.02600
   -27.11703    -0.05018    -0.00003    -0.00990    -0.00165     0.00000     0.00000     0.00000     0.00000     0.00000    -0.06176
   -27.00203    -0.08217    -0.00005    -0.01620    -0.00271     0.00000     0.00000     0.00000     0.00000     0.00000    -0.10113
   -26.88703    -0.10289    -0.00006    -0.02029    -0.00339     0.00000     0.00000     0.00000     0.00000     0.00000    -0.12664
   -26.77203    -0.11068    -0.00007    -0.02183    -0.00365     0.00000     0.00000     0.00000     0.00000     0.00000    -0.13622
   -26.65703    -0.11234    -0.00007    -0.02215    -0.00370     0.00000     0.00000     0.00000     0.00000     0.00000    -0.13827
   -26.54203    -0.11254    -0.00007    -0.02219    -0.00371     0.00000     0.00000     0.00000     0.00000     0.00000    -0.13851
   -26.42703    -0.11255    -0.00007    -0.02220    -0.00371     0.00000     0.00000     0.00000     0.00000     0.00000    -0.13852
   -26.31203    -0.11255    -0.00007    -0.02220    -0.00371     0.00000     0.00000     0.00000     0.00000     0.00000    -0.13853
   -26.19703    -0.11255    -0.00007    -0.02220    -0.00371     0.00000     0.00000     0.00000     0.00000     0.00000    -0.13853
   -26.08203    -0.11255    -0.00007    -0.02220    -0.00371     0.00000     0.00000     0.00000     0.00000     0.00000    -0.13853
   -25.96703    -0.11255    -0.00007    -0.02220    -0.00371     0.00000     0.00000     0.00000     0.00000     0.00000    -0.13853
   -25.85203    -0.11255    -0.00007    -0.02220    -0.00371     0.00000     0.00000     0.00000     0.00000     0.00000    -0.13853
   -25.73703    -0.11255    -0.00007    -0.02220    -0.00371     0.00000     0.00000     0.00000     0.00000     0.00000    -0.13853
   -25.62203    -0.11255    -0.00007    -0.02220    -0.00371     0.00000     0.00000     0.00000     0.00000     0.00000    -0.13853
   -25.50803    -0.11255    -0.00007    -0.02220    -0.00371     0.00000     0.00000     0.00000     0.00000     0.00000    -0.13853
   -25.39303    -0.11255    -0.00007    -0.02220    -0.00371     0.00000     0.00000     0.00000     0.00000     0.00000    -0.13853
   -25.27803    -0.11255    -0.00007    -0.02220    -0.00371     0.00000     0.00000     0.00000     0.00000     0.00000    -0.13853
   -25.16303    -0.11255    -0.00007    -0.02220    -0.00371     0.00000     0.00000     0.00000     0.00000     0.00000    -0.13853
   -25.04803    -0.11255    -0.00007    -0.02220    -0.00371     0.00000     0.00000     0.00000     0.00000     0.00000    -0.13853
   -24.93303    -0.11255    -0.00007    -0.02220    -0.00371     0.00000     0.00000     0.00000     0.00000     0.00000    -0.13853
   -24.81803    -0.11255    -0.00007    -0.02220    -0.00371     0.00000     0.00000     0.00000     0.00000     0.00000    -0.13853
   -24.70303    -0.11255    -0.00007    -0.02220    -0.00371     0.00000     0.00000     0.00000     0.00000     0.00000    -0.13853
   -24.58803    -0.11255    -0.00007    -0.02220    -0.00371     0.00000     0.00000     0.00000     0.00000     0.00000    -0.13853
   -24.47303    -0.11255    -0.00007    -0.02220    -0.00371     0.00000     0.00000     0.00000     0.00000     0.00000    -0.13853
   -24.35803    -0.11255    -0.00007    -0.02220    -0.00371     0.00000     0.00000     0.00000     0.00000     0.00000    -0.13853
   -24.24303    -0.11255    -0.00007    -0.02220    -0.00371     0.00000     0.00000     0.00000     0.00000     0.00000    -0.13853
   -24.12803    -0.11255    -0.00007    -0.02220    -0.00371     0.00000     0.00000     0.00000     0.00000     0.00000    -0.13853
   -24.01303    -0.11255    -0.00007    -0.02220    -0.00371     0.00000     0.00000     0.00000     0.00000     0.00000    -0.13853
   -23.89803    -0.11255    -0.00007    -0.02220    -0.00371     0.00000     0.00000     0.00000     0.00000     0.00000    -0.13853
   -23.78303    -0.11255    -0.00007    -0.02220    -0.00371     0.00000     0.00000     0.00000     0.00000     0.00000    -0.13853
   -23.66803    -0.11255    -0.00007    -0.02220    -0.00371     0.00000     0.00000     0.00000     0.00000     0.00000    -0.13853
   -23.55303    -0.11255    -0.00007    -0.02220    -0.00371     0.00000     0.00000     0.00000     0.00000     0.00000    -0.13853
   -23.43803    -0.11255    -0.00007    -0.02220    -0.00371     0.00000     0.00000     0.00000     0.00000     0.00000    -0.13853
   -23.32303    -0.11255    -0.00007    -0.02220    -0.00371     0.00000     0.00000     0.00000     0.00000     0.00000    -0.13853
   -23.20803    -0.11255    -0.00007    -0.02220    -0.00371     0.00000     0.00000     0.00000     0.00000     0.00000    -0.13853
   -23.09303    -0.11255    -0.00007    -0.02220    -0.00371     0.00000     0.00000     0.00000     0.00000     0.00000    -0.13853
   -22.97803    -0.11255    -0.00007    -0.02220    -0.00371     0.00000     0.00000     0.00000     0.00000     0.00000    -0.13853
   -22.86303    -0.11255    -0.00007    -0.02220    -0.00371     0.00000     0.00000     0.00000     0.00000     0.00000    -0.13853
   -22.74803    -0.11255    -0.00007    -0.02220    -0.00371     0.00000     0.00000     0.00000     0.00000     0.00000    -0.13853
   -22.63303    -0.11255    -0.00007    -0.02220    -0.00371     0.00000     0.00000     0.00000     0.00000     0.00000    -0.13853
   -22.51803    -0.11255    -0.00007    -0.02220    -0.00371     0.00000     0.00000     0.00000     0.00000     0.00000    -0.13853
   -22.40303    -0.11255    -0.00007    -0.02220    -0.00371     0.00000     0.00000     0.00000     0.00000     0.00000    -0.13853
   -22.28803    -0.11255    -0.00007    -0.02220    -0.00371     0.00000     0.00000     0.00000     0.00000     0.00000    -0.13853
   -22.17303    -0.11255    -0.00007    -0.02220    -0.00371     0.00000     0.00000     0.00000     0.00000     0.00000    -0.13853
   -22.05803    -0.11255    -0.00007    -0.02220    -0.00371     0.00000     0.00000     0.00000     0.00000     0.00000    -0.13853
   -21.94303    -0.11255    -0.00007    -0.02220    -0.00371     0.00000     0.00000     0.00000     0.00000     0.00000    -0.13853
   -21.82803    -0.11255    -0.00007    -0.02220    -0.00371     0.00000     0.00000     0.00000     0.00000     0.00000    -0.13853
   -21.71303    -0.11255    -0.00007    -0.02220    -0.00371     0.00000     0.00000     0.00000     0.00000     0.00000    -0.13853
   -21.59803    -0.11255    -0.00007    -0.02220    -0.00371     0.00000     0.00000     0.00000     0.00000     0.00000    -0.13853
   -21.48303    -0.11255    -0.00007    -0.02220    -0.00371     0.00000     0.00000     0.00000     0.00000     0.00000    -0.13853
   -21.36803    -0.11255    -0.00007    -0.02220    -0.00371     0.00000     0.00000     0.00000     0.00000     0.00000    -0.13853
   -21.25303    -0.11255    -0.00007    -0.02220    -0.00371     0.00000     0.00000     0.00000     0.00000     0.00000    -0.13853
   -21.13803    -0.11255    -0.00007    -0.02220    -0.00371     0.00000     0.00000     0.00000     0.00000     0.00000    -0.13853
   -21.02303    -0.11255    -0.00007    -0.02220    -0.00371     0.00000     0.00000     0.00000     0.00000     0.00000    -0.13853
   -20.90903    -0.11255    -0.00007    -0.02220    -0.00371     0.00000     0.00000     0.00000     0.00000     0.00000    -0.13853
   -20.79403    -0.11255    -0.00007    -0.02220    -0.00371     0.00000     0.00000     0.00000     0.00000     0.00000    -0.13853
   -20.67903    -0.11255    -0.00007    -0.02220    -0.00371     0.00000     0.00000     0.00000     0.00000     0.00000    -0.13853
   -20.56403    -0.11255    -0.00007    -0.02220    -0.00371     0.00000     0.00000     0.00000     0.00000     0.00000    -0.13853
   -20.44903    -0.11255    -0.00007    -0.02220    -0.00371     0.00000     0.00000     0.00000     0.00000     0.00000    -0.13853
   -20.33403    -0.11255    -0.00007    -0.02220    -0.00371     0.00000     0.00000     0.00000     0.00000     0.00000    -0.13853
   -20.21903    -0.11255    -0.00007    -0.02220    -0.00371     0.00000     0.00000     0.00000     0.00000     0.00000    -0.13853
   -20.10403    -0.11256    -0.00007    -0.02220    -0.00371     0.00000     0.00000     0.00000     0.00000     0.00000    -0.13853
   -19.98903    -0.11262    -0.00007    -0.02220    -0.00371     0.00000     0.00000     0.00000     0.00000     0.00000    -0.13861
   -19.87403    -0.11314    -0.00010    -0.02223    -0.00373     0.00000     0.00000     0.00000     0.00000     0.00000    -0.13920
   -19.75903    -0.11541    -0.00023    -0.02234    -0.00382     0.00000     0.00000     0.00000     0.00000     0.00000    -0.14180
   -19.64403    -0.12102    -0.00054    -0.02263    -0.00402     0.00000     0.00000     0.00000     0.00000     0.00000    -0.14821
   -19.52903    -0.12910    -0.00098    -0.02304    -0.00432     0.00000     0.00000     0.00000     0.00000     0.00000    -0.15745
   -19.41403    -0.13595    -0.00136    -0.02339    -0.00458     0.00000     0.00000     0.00000     0.00000     0.00000    -0.16528
   -19.29903    -0.13935    -0.00155    -0.02356    -0.00470     0.00000     0.00000     0.00000     0.00000     0.00000    -0.16916
   -19.18403    -0.14031    -0.00161    -0.02361    -0.00474     0.00000     0.00000     0.00000     0.00000     0.00000    -0.17027
   -19.06903    -0.14047    -0.00161    -0.02362    -0.00474     0.00000     0.00000     0.00000     0.00000     0.00000    -0.17045
   -18.95403    -0.14048    -0.00161    -0.02362    -0.00475     0.00000     0.00000     0.00000     0.00000     0.00000    -0.17046
   -18.83903    -0.14048    -0.00161    -0.02362    -0.00475     0.00000     0.00000     0.00000     0.00000     0.00000    -0.17046
   -18.72403    -0.14048    -0.00161    -0.02362    -0.00475     0.00000     0.00000     0.00000     0.00000     0.00000    -0.17046
   -18.60903    -0.14048    -0.00161    -0.02362    -0.00475     0.00000     0.00000     0.00000     0.00000     0.00000    -0.17046
   -18.49403    -0.14048    -0.00161    -0.02362    -0.00475     0.00000     0.00000     0.00000     0.00000     0.00000    -0.17046
   -18.37903    -0.14048    -0.00161    -0.02362    -0.00475     0.00000     0.00000     0.00000     0.00000     0.00000    -0.17046
   -18.26403    -0.14048    -0.00161    -0.02362    -0.00475     0.00000     0.00000     0.00000     0.00000     0.00000    -0.17046
   -18.14903    -0.14048    -0.00161    -0.02362    -0.00475     0.00000     0.00000     0.00000     0.00000     0.00000    -0.17046
   -18.03403    -0.14048    -0.00161    -0.02362    -0.00475     0.00000     0.00000     0.00000     0.00000     0.00000    -0.17046
   -17.91903    -0.14048    -0.00161    -0.02362    -0.00475     0.00000     0.00000     0.00000     0.00000     0.00000    -0.17046
   -17.80403    -0.14048    -0.00161    -0.02362    -0.00475     0.00000     0.00000     0.00000     0.00000     0.00000    -0.17046
   -17.68903    -0.14048    -0.00161    -0.02362    -0.00475     0.00000     0.00000     0.00000     0.00000     0.00000    -0.17046
   -17.57403    -0.14048    -0.00161    -0.02362    -0.00475     0.00000     0.00000     0.00000     0.00000     0.00000    -0.17046
   -17.45903    -0.14049    -0.00162    -0.02362    -0.00475     0.00000     0.00000     0.00000     0.00000     0.00000    -0.17047
   -17.34403    -0.14055    -0.00162    -0.02362    -0.00475     0.00000     0.00000     0.00000     0.00000     0.00000    -0.17053
   -17.22903    -0.14123    -0.00165    -0.02365    -0.00477     0.00000     0.00000     0.00000     0.00000     0.00000    -0.17131
   -17.11403    -0.14552    -0.00187    -0.02385    -0.00493     0.00000     0.00000     0.00000     0.00000     0.00000    -0.17616
   -16.99903    -0.16059    -0.00263    -0.02449    -0.00547     0.00000     0.00000     0.00000     0.00000     0.00000    -0.19318
   -16.88403    -0.19110    -0.00421    -0.02573    -0.00656     0.00000     0.00000     0.00000     0.00000     0.00000    -0.22759
   -16.76903    -0.22731    -0.00611    -0.02714    -0.00785     0.00000     0.00000     0.00000     0.00000     0.00000    -0.26841
   -16.65403    -0.25270    -0.00746    -0.02808    -0.00876     0.00000     0.00000     0.00000     0.00000     0.00000    -0.29699
   -16.53903    -0.26308    -0.00801    -0.02844    -0.00913     0.00000     0.00000     0.00000     0.00000     0.00000    -0.30866
   -16.42503    -0.26550    -0.00815    -0.02852    -0.00922     0.00000     0.00000     0.00000     0.00000     0.00000    -0.31139
   -16.31003    -0.26581    -0.00817    -0.02853    -0.00923     0.00000     0.00000     0.00000     0.00000     0.00000    -0.31174
   -16.19503    -0.26584    -0.00817    -0.02853    -0.00923     0.00000     0.00000     0.00000     0.00000     0.00000    -0.31177
   -16.08003    -0.26584    -0.00817    -0.02853    -0.00923     0.00000     0.00000     0.00000     0.00000     0.00000    -0.31177
   -15.96503    -0.26584    -0.00817    -0.02853    -0.00923     0.00000     0.00000     0.00000     0.00000     0.00000    -0.31177
   -15.85003    -0.26584    -0.00817    -0.02853    -0.00923     0.00000     0.00000     0.00000     0.00000     0.00000    -0.31177
   -15.73503    -0.26584    -0.00817    -0.02853    -0.00923     0.00000     0.00000     0.00000     0.00000     0.00000    -0.31177
   -15.62003    -0.26585    -0.00817    -0.02853    -0.00923     0.00000     0.00000     0.00000     0.00000     0.00000    -0.31179
   -15.50503    -0.26614    -0.00817    -0.02857    -0.00924     0.00000     0.00000     0.00000     0.00000     0.00000    -0.31212
   -15.39003    -0.26903    -0.00817    -0.02893    -0.00934     0.00000     0.00000     0.00000     0.00000     0.00000    -0.31546
   -15.27503    -0.28474    -0.00818    -0.03091    -0.00987     0.00000     0.00000     0.00000     0.00000     0.00000    -0.33369
   -15.16003    -0.33304    -0.00820    -0.03698    -0.01151     0.00000     0.00000     0.00000     0.00000     0.00000    -0.38972
   -15.04503    -0.41872    -0.00825    -0.04775    -0.01441     0.00000     0.00000     0.00000     0.00000     0.00000    -0.48912
   -14.93003    -0.50798    -0.00829    -0.05896    -0.01744     0.00000     0.00000     0.00000     0.00000     0.00000    -0.59268
   -14.81503    -0.56266    -0.00832    -0.06584    -0.01929     0.00000     0.00000     0.00000     0.00000     0.00000    -0.65611
   -14.70003    -0.58206    -0.00833    -0.06827    -0.01995     0.00000     0.00000     0.00000     0.00000     0.00000    -0.67861
   -14.58503    -0.58595    -0.00833    -0.06876    -0.02008     0.00000     0.00000     0.00000     0.00000     0.00000    -0.68313
   -14.47003    -0.58638    -0.00833    -0.06882    -0.02010     0.00000     0.00000     0.00000     0.00000     0.00000    -0.68363
   -14.35503    -0.58649    -0.00833    -0.06883    -0.02010     0.00000     0.00000     0.00000     0.00000     0.00000    -0.68375
   -14.24003    -0.58727    -0.00834    -0.06890    -0.02015     0.00000     0.00000     0.00000     0.00000     0.00000    -0.68466
   -14.12503    -0.59156    -0.00837    -0.06931    -0.02040     0.00000     0.00000     0.00000     0.00000     0.00000    -0.68964
   -14.01003    -0.60480    -0.00846    -0.07055    -0.02118     0.00000     0.00000     0.00000     0.00000     0.00000    -0.70499
   -13.89503    -0.62848    -0.00863    -0.07277    -0.02257     0.00000     0.00000     0.00000     0.00000     0.00000    -0.73245
   -13.78003    -0.65431    -0.00890    -0.07509    -0.02402     0.00000     0.00000     0.00000     0.00000     0.00000    -0.76233
   -13.66503    -0.67568    -0.00953    -0.07652    -0.02496     0.00000     0.00000     0.00000     0.00000     0.00000    -0.78669
   -13.55003    -0.69908    -0.01108    -0.07702    -0.02543     0.00000     0.00000     0.00000     0.00000     0.00000    -0.81261
   -13.43503    -0.73025    -0.01363    -0.07713    -0.02574     0.00000     0.00000     0.00000     0.00000     0.00000    -0.84674
   -13.32003    -0.75989    -0.01612    -0.07714    -0.02598     0.00000     0.00000     0.00000     0.00000     0.00000    -0.87913
   -13.20503    -0.77692    -0.01755    -0.07714    -0.02612     0.00000     0.00000     0.00000     0.00000     0.00000    -0.89774
   -13.09003    -0.78259    -0.01803    -0.07714    -0.02617     0.00000     0.00000     0.00000     0.00000     0.00000    -0.90394
   -12.97503    -0.78366    -0.01812    -0.07714    -0.02618     0.00000     0.00000     0.00000     0.00000     0.00000    -0.90510
   -12.86003    -0.78377    -0.01813    -0.07714    -0.02618     0.00000     0.00000     0.00000     0.00000     0.00000    -0.90522
   -12.74503    -0.78377    -0.01813    -0.07714    -0.02618     0.00000     0.00000     0.00000     0.00000     0.00000    -0.90523
   -12.63003    -0.78377    -0.01813    -0.07714    -0.02618     0.00000     0.00000     0.00000     0.00000     0.00000    -0.90523
   -12.51503    -0.78378    -0.01813    -0.07714    -0.02618     0.00000     0.00000     0.00000     0.00000     0.00000    -0.90523
   -12.40003    -0.78386    -0.01814    -0.07715    -0.02618     0.00000     0.00000     0.00000     0.00000     0.00000    -0.90533
   -12.28503    -0.78481    -0.01817    -0.07716    -0.02622     0.00000     0.00000     0.00000     0.00000     0.00000    -0.90635
